BT-1
S12fi Tl2(Ba0.5Sr0.4)2Ca2Cu3Oy(1-2) Izumi at RT                        s12fi001 
Instrument parameter file:bt1_cu311_15.inst
BANK  1     3300     660 CONST     300.00      5.00 0 0 ESD
    572.     39.    574.     39.    580.     39.    593.     39.    572.     39.
    564.     38.    515.     37.    515.     37.    539.     38.    469.     35.
    553.     38.    585.     39.    523.     37.    537.     38.    466.     35.
    512.     37.    583.     39.    502.     36.    558.     38.    550.     38.
    604.     40.    585.     39.    502.     36.    547.     38.    502.     36.
    607.     40.    542.     38.    515.     37.    585.     39.    601.     40.
    550.     38.    650.     41.    564.     38.    682.     42.    626.     41.
    647.     41.    723.     44.    753.     45.    839.     47.    680.     42.
    669.     42.    588.     39.    588.     39.    469.     35.    445.     34.
    404.     32.    415.     33.    493.     36.    394.     32.    377.     31.
    431.     34.    431.     34.    415.     33.    431.     34.    483.     36.
    412.     33.    442.     34.    412.     33.    483.     36.    466.     35.
    410.     33.    369.     31.    464.     35.    388.     32.    367.     31.
    437.     34.    439.     34.    431.     34.    345.     30.    396.     32.
    402.     32.    323.     29.    412.     33.    456.     34.    385.     32.
    407.     33.    380.     31.    396.     32.    367.     31.    364.     31.
    385.     32.    396.     32.    385.     32.    396.     32.    394.     32.
    367.     31.    383.     31.    364.     31.    377.     31.    418.     33.
    415.     33.    348.     30.    429.     33.    394.     32.    342.     30.
    348.     30.    375.     31.    375.     31.    337.     29.    418.     33.
    346.     20.    360.     21.    355.     21.    346.     20.    348.     20.
    343.     20.    354.     21.    371.     21.    368.     21.    351.     20.
    368.     21.    348.     20.    363.     21.    362.     21.    368.     21.
    370.     21.    379.     21.    352.     20.    315.     19.    348.     20.
    311.     19.    343.     20.    357.     21.    339.     20.    316.     19.
    328.     20.    350.     20.    325.     20.    336.     20.    371.     21.
    344.     20.    369.     21.    346.     20.    366.     21.    337.     20.
    364.     21.    376.     21.    366.     21.    324.     20.    354.     21.
    339.     20.    373.     21.    393.     22.    346.     20.    322.     20.
    328.     20.    339.     20.    365.     21.    335.     20.    325.     20.
    304.     19.    353.     20.    316.     19.    311.     19.    323.     20.
    345.     20.    339.     20.    358.     21.    342.     20.    355.     21.
    339.     20.    337.     20.    312.     19.    323.     20.    329.     20.
    308.     19.    314.     19.    353.     20.    326.     20.    335.     20.
    332.     20.    312.     19.    328.     20.    318.     19.    345.     20.
    316.     19.    332.     20.    318.     19.    338.     20.    341.     20.
    334.     20.    341.     20.    333.     20.    317.     19.    330.     20.
    339.     20.    337.     20.    298.     19.    339.     20.    343.     20.
    314.     19.    306.     19.    299.     19.    332.     20.    329.     20.
    316.     19.    308.     19.    316.     19.    316.     19.    305.     19.
    314.     19.    333.     20.    325.     20.    318.     20.    321.     20.
    332.     20.    335.     20.    324.     20.    286.     18.    320.     20.
    340.     20.    327.     20.    311.     19.    303.     19.    328.     20.
    329.     20.    312.     19.    323.     20.    330.     20.    315.     19.
    326.     20.    327.     20.    320.     20.    312.     19.    308.     19.
    296.     19.    325.     20.    310.     19.    325.     20.    333.     20.
    302.     19.    310.     19.    317.     20.    346.     20.    371.     21.
    410.     22.    434.     23.    433.     23.    434.     23.    404.     22.
    386.     22.    329.     20.    318.     20.    309.     19.    307.     19.
    320.     20.    293.     19.    294.     19.    303.     19.    285.     18.
    279.     18.    311.     19.    292.     19.    289.     19.    286.     18.
    298.     19.    321.     20.    315.     19.    295.     19.    288.     19.
    317.     20.    315.     19.    316.     19.    306.     19.    287.     18.
    288.     19.    275.     18.    298.     19.    312.     19.    304.     19.
    280.     18.    297.     19.    287.     18.    268.     18.    288.     19.
    289.     18.    326.     20.    294.     19.    298.     19.    280.     18.
    282.     18.    320.     20.    291.     19.    277.     18.    274.     18.
    317.     20.    295.     19.    273.     18.    281.     18.    310.     19.
    301.     19.    283.     18.    278.     18.    316.     19.    329.     20.
    308.     19.    289.     18.    299.     19.    310.     19.    290.     19.
    302.     28.    284.     19.    327.     20.    305.     20.    319.     20.
    297.     19.    302.     20.    298.     19.    250.     18.    273.     18.
    313.     20.    294.     19.    297.     19.    279.     19.    273.     19.
    249.     18.    274.     19.    277.     19.    268.     18.    284.     19.
    269.     18.    287.     19.    281.     19.    255.     18.    257.     18.
    271.     18.    272.     18.    314.     20.    307.     20.    318.     20.
    289.     19.    284.     19.    301.     19.    278.     19.    290.     19.
    292.     19.    324.     20.    335.     21.    343.     21.    320.     20.
    307.     20.    307.     20.    297.     19.    284.     19.    254.     18.
    263.     18.    301.     19.    262.     18.    274.     19.    285.     19.
    280.     19.    282.     19.    295.     19.    280.     19.    269.     18.
    290.     19.    263.     18.    247.     18.    243.     17.    285.     19.
    272.     18.    293.     19.    257.     18.    258.     18.    258.     18.
    296.     19.    277.     19.    298.     19.    267.     18.    249.     18.
    266.     18.    256.     18.    262.     18.    292.     19.    292.     19.
    262.     18.    268.     18.    283.     19.    265.     18.    254.     18.
    272.     18.    248.     18.    275.     19.    277.     19.    266.     18.
    267.     18.    225.     17.    252.     18.    255.     18.    239.     17.
    266.     18.    258.     18.    271.     18.    264.     18.    282.     19.
    272.     18.    256.     18.    278.     19.    303.     20.    304.     20.
    330.     20.    358.     20.    401.     22.    420.     22.    425.     22.
    401.     22.    346.     20.    292.     18.    263.     17.    275.     18.
    259.     17.    259.     17.    229.     16.    262.     17.    271.     18.
    239.     17.    245.     17.    262.     17.    246.     17.    253.     17.
    264.     18.    270.     18.    267.     18.    281.     18.    325.     19.
    306.     19.    275.     18.    270.     18.    304.     19.    279.     18.
    262.     17.    271.     18.    263.     17.    270.     18.    288.     18.
    273.     18.    294.     19.    344.     20.    393.     21.    439.     23.
    435.     23.    425.     22.    385.     21.    325.     19.    285.     18.
    275.     18.    276.     18.    263.     17.    251.     17.    255.     17.
    237.     17.    255.     17.    230.     16.    264.     18.    250.     17.
    244.     17.    270.     18.    257.     17.    259.     17.    253.     17.
    250.     17.    280.     18.    280.     18.    271.     18.    266.     18.
    279.     18.    283.     18.    256.     17.    247.     17.    253.     17.
    239.     17.    261.     17.    286.     18.    250.     17.    238.     17.
    242.     17.    251.     17.    257.     17.    225.     16.    244.     17.
    270.     18.    252.     17.    240.     17.    238.     17.    234.     16.
    222.     16.    237.     17.    261.     17.    260.     17.    256.     17.
    243.     17.    276.     18.    256.     17.    265.     18.    260.     17.
    265.     18.    255.     17.    278.     18.    268.     18.    238.     17.
    228.     16.    245.     17.    244.     17.    265.     17.    263.     17.
    241.     17.    263.     17.    272.     18.    264.     17.    257.     17.
    239.     17.    267.     18.    266.     17.    262.     17.    251.     17.
    252.     17.    250.     17.    269.     18.    274.     18.    288.     18.
    317.     19.    330.     19.    305.     19.    313.     19.    286.     18.
    275.     18.    284.     18.    310.     19.    281.     18.    286.     18.
    286.     18.    290.     18.    263.     17.    255.     17.    252.     17.
    236.     16.    250.     17.    266.     17.    303.     19.    311.     19.
    386.     21.    453.     23.    515.     24.    533.     25.    480.     23.
    404.     22.    339.     20.    308.     19.    286.     18.    241.     17.
    259.     17.    246.     17.    251.     17.    246.     17.    246.     17.
    249.     17.    251.     17.    232.     16.    248.     17.    255.     17.
    246.     17.    232.     16.    262.     17.    270.     18.    231.     16.
    245.     17.    246.     17.    257.     17.    266.     17.    267.     17.
    268.     18.    254.     17.    263.     17.    255.     17.    253.     17.
    266.     17.    237.     16.    260.     17.    264.     17.    254.     17.
    239.     17.    272.     18.    258.     17.    256.     17.    267.     18.
    329.     19.    417.     22.    490.     24.    527.     25.    525.     25.
    480.     23.    398.     21.    370.     21.    378.     21.    489.     24.
    678.     28.    891.     32.    910.     32.    820.     31.    651.     27.
    503.     23.    494.     23.    529.     24.    682.     27.    781.     29.
    765.     29.    682.     27.    553.     24.    482.     23.    355.     19.
    307.     18.    303.     18.    274.     17.    279.     17.    265.     17.
    267.     17.    260.     17.    245.     16.    241.     16.    264.     17.
    294.     18.    284.     17.    259.     17.    247.     16.    268.     17.
    262.     17.    257.     16.    276.     17.    275.     17.    280.     17.
    264.     17.    244.     16.    254.     16.    265.     17.    239.     16.
    232.     16.    244.     16.    249.     16.    262.     17.    281.     17.
    254.     16.    289.     17.    316.     18.    333.     19.    353.     19.
    387.     20.    441.     22.    450.     22.    400.     21.    348.     19.
    316.     18.    284.     17.    260.     17.    248.     16.    238.     16.
    268.     17.    250.     16.    258.     16.    252.     16.    263.     17.
    341.     19.    466.     22.    636.     26.    869.     30.   1112.     35.
   1201.     36.   1080.     34.    868.     30.    621.     26.    458.     22.
    334.     19.    300.     18.    250.     16.    245.     16.    250.     16.
    275.     17.    264.     17.    275.     17.    273.     17.    258.     16.
    245.     16.    276.     17.    263.     17.    264.     17.    275.     17.
    262.     17.    262.     17.    282.     17.    287.     17.    287.     17.
    272.     17.    283.     17.    293.     18.    263.     17.    256.     16.
    257.     16.    251.     16.    253.     16.    263.     17.    265.     17.
    262.     13.    246.     15.    236.     15.    226.     14.    239.     15.
    250.     15.    225.     14.    238.     15.    256.     15.    261.     15.
    251.     15.    228.     14.    227.     14.    236.     15.    251.     15.
    247.     15.    254.     15.    254.     15.    234.     15.    226.     14.
    238.     15.    241.     15.    232.     15.    241.     15.    225.     14.
    239.     15.    247.     15.    233.     15.    243.     15.    254.     15.
    263.     16.    249.     15.    228.     14.    248.     15.    252.     15.
    228.     14.    236.     15.    243.     15.    255.     15.    244.     15.
    215.     14.    257.     15.    250.     15.    250.     15.    262.     15.
    299.     17.    372.     19.    450.     20.    556.     23.    582.     23.
    608.     24.    617.     24.    557.     23.    455.     20.    395.     19.
    337.     18.    291.     16.    275.     16.    263.     15.    244.     15.
    255.     15.    246.     15.    247.     15.    240.     15.    256.     15.
    262.     15.    249.     15.    269.     16.    266.     16.    273.     16.
    294.     16.    335.     18.    390.     19.    490.     21.    550.     23.
    573.     23.    536.     22.    453.     20.    352.     18.    298.     17.
    306.     17.    325.     17.    331.     17.    303.     17.    290.     16.
    286.     16.    266.     16.    237.     15.    253.     15.    247.     15.
    234.     15.    222.     14.    248.     15.    238.     15.    225.     14.
    233.     15.    220.     14.    240.     15.    238.     15.    243.     15.
    261.     15.    243.     14.    247.     14.    277.     15.    277.     15.
    291.     16.    286.     16.    268.     15.    243.     14.    248.     14.
    233.     14.    225.     14.    235.     14.    239.     14.    262.     15.
    239.     14.    234.     14.    237.     14.    243.     14.    230.     14.
    247.     14.    238.     14.    230.     14.    239.     14.    236.     14.
    227.     14.    240.     14.    226.     14.    229.     14.    233.     14.
    246.     14.    230.     14.    233.     14.    232.     14.    220.     14.
    266.     15.    265.     15.    279.     15.    289.     16.    283.     15.
    308.     16.    355.     17.    393.     18.    421.     19.    424.     19.
    419.     19.    333.     17.    293.     16.    251.     15.    242.     14.
    248.     14.    228.     14.    233.     14.    251.     15.    246.     14.
    241.     14.    238.     14.    264.     15.    263.     15.    277.     15.
    272.     15.    243.     14.    235.     14.    233.     14.    234.     14.
    249.     14.    224.     14.    219.     14.    210.     13.    235.     14.
    222.     14.    239.     14.    223.     14.    254.     15.    273.     15.
    277.     15.    285.     16.    289.     16.    385.     18.    596.     22.
   1018.     29.   1737.     38.   2362.     45.   2555.     46.   2145.     42.
   1564.     36.   1000.     29.    628.     23.    455.     20.    401.     18.
    344.     17.    324.     17.    282.     15.    243.     14.    256.     15.
    237.     14.    227.     14.    227.     14.    236.     14.    248.     14.
    238.     13.    254.     14.    239.     13.    220.     13.    224.     13.
    237.     13.    226.     13.    234.     13.    233.     13.    230.     13.
    231.     13.    233.     13.    230.     13.    253.     14.    230.     13.
    231.     13.    245.     13.    245.     14.    251.     14.    269.     14.
    282.     14.    279.     14.    261.     14.    253.     14.    244.     13.
    242.     13.    225.     13.    232.     13.    214.     13.    231.     13.
    230.     13.    247.     14.    238.     13.    267.     14.    272.     14.
    264.     14.    243.     13.    243.     13.    233.     13.    225.     13.
    219.     13.    221.     13.    226.     13.    240.     13.    260.     14.
    251.     14.    237.     13.    251.     14.    230.     13.    228.     13.
    233.     13.    236.     13.    231.     13.    236.     13.    247.     14.
    225.     13.    236.     13.    257.     14.    242.     13.    210.     12.
    226.     13.    227.     13.    241.     13.    235.     13.    246.     14.
    240.     13.    253.     14.    265.     14.    253.     14.    238.     13.
    239.     13.    262.     14.    262.     14.    263.     14.    251.     14.
    243.     13.    249.     14.    240.     13.    227.     13.    246.     14.
    249.     14.    215.     13.    230.     13.    230.     13.    222.     13.
    216.     13.    244.     13.    245.     13.    245.     13.    237.     13.
    241.     13.    248.     14.    243.     13.    242.     13.    248.     14.
    236.     13.    229.     13.    238.     13.    252.     14.    256.     14.
    323.     15.    395.     16.    502.     18.    638.     21.    575.     20.
    507.     19.    428.     17.    365.     16.    282.     14.    263.     13.
    253.     13.    264.     14.    282.     14.    302.     14.    308.     15.
    292.     14.    307.     15.    298.     14.    300.     14.    326.     15.
    359.     16.    392.     16.    441.     17.    443.     17.    372.     16.
    316.     15.    309.     15.    287.     14.    279.     14.    279.     14.
    269.     14.    268.     14.    270.     14.    273.     14.    268.     14.
    258.     13.    253.     13.    267.     14.    267.     14.    253.     13.
    250.     13.    225.     13.    243.     13.    239.     13.    229.     13.
    226.     13.    235.     13.    250.     13.    256.     13.    261.     13.
    259.     13.    242.     13.    238.     13.    254.     13.    250.     13.
    261.     13.    269.     14.    242.     13.    251.     13.    273.     14.
    266.     14.    264.     14.    257.     13.    269.     14.    269.     14.
    312.     15.    317.     15.    314.     15.    333.     15.    307.     15.
    280.     14.    272.     14.    261.     13.    276.     14.    278.     14.
    342.     15.    431.     17.    576.     20.    788.     23.    969.     26.
    987.     26.    868.     24.    710.     22.    505.     19.    400.     17.
    308.     15.    277.     14.    296.     14.    286.     14.    328.     15.
    346.     15.    414.     17.    483.     18.    477.     18.    440.     17.
    385.     16.    345.     15.    301.     14.    293.     14.    270.     14.
    281.     14.    270.     13.    267.     13.    291.     14.    301.     14.
    336.     15.    436.     17.    512.     18.    588.     20.    541.     19.
    449.     17.    369.     16.    271.     13.    261.     13.    253.     13.
    244.     13.    268.     13.    242.     13.    246.     13.    240.     13.
    236.     13.    246.     13.    267.     13.    217.     12.    222.     12.
    216.     12.    241.     13.    238.     13.    237.     13.    236.     13.
    252.     13.    283.     14.    312.     14.    309.     14.    312.     14.
    284.     14.    275.     14.    244.     13.    254.     13.    239.     13.
    237.     13.    287.     14.    307.     14.    350.     15.    417.     17.
    526.     19.    517.     18.    448.     17.    421.     17.    344.     15.
    279.     14.    276.     14.    259.     13.    273.     14.    363.     15.
    460.     17.    613.     20.    757.     22.    868.     24.    866.     24.
    699.     21.    533.     19.    382.     16.    331.     15.    290.     14.
    269.     13.    277.     14.    268.     13.    254.     13.    248.     13.
    255.     13.    252.     13.    260.     13.    232.     12.    222.     12.
    246.     13.    237.     13.    242.     13.    216.     12.    242.     13.
    238.     13.    233.     13.    244.     13.    235.     13.    243.     13.
    229.     12.    228.     12.    256.     13.    254.     13.    239.     13.
    248.     13.    252.     13.    261.     13.    275.     14.    299.     14.
    286.     14.    271.     13.    258.     13.    242.     13.    234.     13.
    227.     12.    232.     12.    227.     11.    222.     11.    224.     11.
    220.     11.    224.     11.    233.     12.    242.     12.    232.     12.
    236.     12.    268.     12.    280.     13.    326.     14.    397.     15.
    511.     17.    617.     19.    756.     21.    817.     22.    727.     20.
    641.     19.    510.     17.    407.     15.    347.     14.    302.     13.
    284.     13.    258.     12.    258.     12.    247.     12.    271.     13.
    261.     12.    235.     12.    245.     12.    235.     12.    228.     12.
    226.     11.    245.     12.    280.     13.    317.     14.    323.     14.
    329.     14.    322.     14.    307.     13.    284.     13.    253.     12.
    248.     12.    246.     12.    225.     11.    214.     11.    212.     11.
    218.     11.    233.     12.    233.     12.    225.     11.    235.     12.
    213.     11.    217.     11.    228.     12.    227.     12.    222.     11.
    228.     12.    236.     12.    232.     12.    231.     12.    230.     12.
    213.     11.    226.     11.    220.     11.    225.     11.    232.     12.
    212.     11.    210.     11.    220.     11.    223.     11.    223.     11.
    209.     11.    214.     11.    226.     11.    248.     12.    231.     12.
    266.     12.    259.     12.    271.     13.    269.     13.    282.     13.
    295.     13.    288.     13.    286.     13.    279.     13.    279.     13.
    249.     12.    243.     12.    236.     12.    233.     12.    223.     11.
    223.     11.    225.     11.    235.     12.    250.     12.    261.     12.
    241.     16.    227.     11.    227.     11.    212.     11.    223.     11.
    214.     11.    215.     11.    223.     11.    223.     11.    227.     11.
    230.     11.    235.     11.    244.     11.    278.     12.    339.     13.
    516.     16.    766.     20.   1074.     24.   1204.     25.   1168.     25.
    940.     22.    660.     18.    502.     16.    391.     14.    328.     13.
    280.     12.    259.     12.    232.     11.    227.     11.    242.     11.
    217.     11.    211.     11.    226.     11.    230.     11.    213.     11.
    223.     11.    231.     11.    218.     11.    206.     10.    213.     11.
    211.     11.    221.     11.    216.     11.    210.     11.    226.     11.
    212.     11.    212.     11.    219.     11.    219.     11.    229.     11.
    222.     11.    236.     11.    246.     11.    230.     11.    235.     11.
    231.     11.    235.     11.    237.     11.    228.     11.    234.     11.
    242.     11.    250.     12.    229.     11.    225.     11.    211.     11.
    227.     11.    225.     11.    224.     11.    223.     11.    223.     11.
    222.     11.    219.     11.    198.     10.    215.     11.    220.     11.
    208.     11.    218.     11.    214.     11.    225.     11.    218.     11.
    221.     11.    217.     11.    221.     11.    246.     11.    279.     12.
    283.     12.    300.     13.    302.     13.    279.     12.    267.     12.
    247.     11.    238.     11.    241.     11.    235.     11.    214.     11.
    225.     11.    241.     11.    233.     11.    219.     11.    212.     11.
    221.     11.    227.     11.    223.     11.    207.     11.    208.     11.
    220.     11.    212.     11.    205.     11.    217.     11.    225.     11.
    205.     11.    222.     11.    198.     10.    221.     11.    233.     11.
    228.     11.    237.     11.    230.     11.    233.     11.    222.     11.
    226.     11.    226.     11.    207.     11.    206.     11.    206.     11.
    216.     11.    220.     11.    226.     11.    244.     11.    264.     12.
    307.     13.    311.     13.    306.     13.    294.     13.    275.     12.
    254.     12.    233.     11.    252.     12.    245.     12.    222.     11.
    227.     11.    229.     11.    220.     11.    207.     11.    219.     11.
    208.     11.    207.     11.    194.     10.    202.     10.    209.     11.
    223.     11.    225.     11.    215.     11.    219.     11.    218.     11.
    215.     11.    222.     11.    220.     11.    211.     11.    214.     11.
    201.     10.    222.     11.    223.     11.    230.     11.    218.     11.
    210.     11.    228.     11.    242.     11.    268.     12.    282.     12.
    285.     12.    281.     12.    279.     12.    274.     12.    307.     13.
    336.     13.    408.     15.    546.     17.    728.     19.    913.     22.
   1069.     24.   1124.     24.   1002.     23.    787.     20.    578.     17.
    429.     15.    343.     14.    279.     12.    254.     12.    248.     12.
    241.     11.    241.     11.    220.     11.    245.     12.    220.     11.
    224.     11.    226.     11.    220.     11.    221.     11.    240.     11.
    237.      9.    234.     11.    237.     11.    256.     12.    309.     13.
    321.     13.    323.     13.    327.     13.    373.     14.    396.     14.
    386.     14.    389.     14.    366.     14.    346.     13.    350.     13.
    313.     13.    283.     12.    261.     12.    235.     11.    229.     11.
    227.     11.    228.     11.    233.     11.    248.     11.    260.     12.
    273.     12.    276.     12.    276.     12.    276.     12.    256.     12.
    262.     12.    233.     11.    239.     11.    235.     11.    232.     11.
    259.     12.    274.     12.    302.     13.    319.     13.    304.     13.
    304.     13.    261.     12.    244.     11.    247.     11.    256.     12.
    265.     12.    278.     12.    326.     13.    375.     14.    396.     14.
    405.     14.    359.     14.    308.     13.    281.     12.    256.     12.
    233.     11.    235.     11.    207.     10.    215.     11.    224.     11.
    214.     11.    223.     11.    220.     11.    221.     11.    219.     11.
    211.     11.    226.     11.    228.     11.    230.     11.    204.     10.
    211.     11.    224.     11.    219.     11.    224.     11.    215.     11.
    226.     11.    224.     11.    230.     11.    284.     12.    318.     13.
    332.     13.    350.     13.    364.     14.    340.     13.    318.     13.
    284.     12.    250.     11.    232.     11.    236.     11.    246.     11.
    242.     11.    230.     11.    214.     11.    219.     11.    231.     11.
    220.     11.    241.     11.    229.     11.    249.     11.    275.     12.
    372.     19.    385.     14.    426.     14.    413.     14.    403.     14.
    372.     14.    329.     13.    290.     12.    263.     11.    268.     12.
    247.     11.    221.     11.    248.     11.    251.     11.    247.     11.
    260.     11.    293.     12.    330.     13.    386.     14.    441.     15.
    452.     15.    467.     15.    420.     14.    411.     14.    412.     14.
    355.     13.    306.     12.    273.     12.    249.     11.    224.     11.
    232.     11.    230.     11.    229.     11.    216.     10.    222.     11.
    216.     10.    217.     10.    224.     11.    205.     10.    232.     11.
    221.     11.    217.     10.    213.     10.    235.     11.    209.     10.
    200.     10.    206.     10.    194.     10.    198.     10.    203.     10.
    200.     10.    210.     10.    204.     10.    201.     10.    211.     10.
    196.     10.    201.     10.    209.     10.    204.     10.    238.     11.
    232.     11.    224.     11.    234.     11.    251.     11.    263.     11.
    272.     12.    300.     12.    283.     12.    289.     12.    258.     11.
    253.     11.    235.     11.    234.     11.    217.     10.    225.     11.
    216.     10.    221.     11.    221.     11.    211.     10.    215.     10.
    214.     10.    211.     10.    210.     10.    198.     10.    202.     10.
    217.     10.    209.     10.    209.     10.    222.     11.    202.     10.
    190.     10.    197.     10.    200.     10.    223.     11.    235.     11.
    225.     11.    239.     11.    244.     11.    238.     11.    244.     11.
    258.     11.    244.     11.    229.     11.    238.     11.    216.     10.
    219.     11.    213.     10.    211.     10.    216.     10.    201.     10.
    216.     10.    219.     10.    216.     10.    210.     10.    209.     10.
    204.     10.    230.     11.    244.     11.    246.     11.    273.     12.
    294.     12.    295.     12.    297.     12.    298.     12.    288.     12.
    294.     12.    266.     12.    249.     11.    240.     11.    215.     10.
    198.     10.    213.     10.    213.     10.    203.     10.    212.     10.
    208.     10.    204.     10.    226.     11.    205.     10.    228.     11.
    254.     11.    236.     11.    225.     11.    222.     11.    225.     11.
    210.     10.    234.     11.    225.     11.    199.     10.    220.     11.
    209.     10.    235.     11.    218.     10.    212.     10.    239.     11.
    249.     11.    244.     11.    279.     12.    279.     12.    289.     12.
    283.     12.    274.     12.    270.     12.    265.     12.    245.     11.
    231.     11.    235.     11.    233.     11.    216.     10.    223.     11.
    231.     11.    236.     11.    229.     11.    237.     11.    220.     11.
    213.     10.    224.     11.    212.     10.    238.     11.    219.     11.
    225.     11.    235.     11.    240.     11.    247.     11.    267.     12.
    296.     12.    309.     12.    297.     12.    332.     13.    341.     13.
    302.     12.    288.     12.    249.     11.    260.     11.    246.     11.
    215.     10.    222.     11.    216.     10.    216.     10.    222.     11.
    233.     11.    235.     11.    231.     11.    237.     11.    223.     11.
    226.     11.    224.     11.    232.     11.    239.     11.    246.     11.
    232.     11.    229.     11.    239.     11.    227.     11.    237.     11.
    226.     11.    248.     11.    213.     10.    203.     10.    227.     11.
    223.     11.    238.     11.    218.     11.    219.     11.    235.     11.
    230.     11.    240.     11.    239.     11.    237.     11.    237.     11.
    243.     11.    221.     11.    215.     10.    239.     11.    226.     11.
    235.     11.    258.     11.    253.     11.    263.     12.    285.     12.
    282.     12.    310.     13.    287.     12.    281.     12.    280.     12.
    320.     13.    337.     13.    397.     14.    470.     15.    520.     16.
    539.     17.    547.     17.    523.     16.    441.     15.    401.     14.
    347.     13.    309.     13.    320.     13.    318.     13.    321.     13.
    355.     13.    346.     13.    334.     13.    323.     13.    303.     12.
    286.     12.    279.     12.    255.     11.    254.     11.    257.     11.
    247.     11.    279.     12.    301.     12.    323.     13.    341.     13.
    343.     13.    328.     13.    285.     12.    277.     12.    262.     12.
    245.     11.    247.     11.    237.     11.    209.     10.    231.     11.
    211.     10.    219.     11.    234.     11.    211.     10.    218.     11.
    220.     11.    208.     10.    215.     10.    225.     11.    217.     11.
    224.     11.    231.     11.    211.     10.    234.     11.    224.     11.
    234.     11.    234.     11.    216.     11.    225.     11.    221.     11.
    224.     11.    226.     11.    220.     11.    217.     11.    221.     11.
    239.     11.    241.     11.    247.     11.    244.     11.    282.     12.
    312.     13.    348.     13.    401.     14.    402.     14.    400.     14.
    361.     14.    336.     13.    288.     12.    286.     12.    244.     11.
    240.     11.    233.     11.    242.     11.    224.     11.    252.     11.
    237.     11.    211.     10.    239.     11.    238.     11.    221.     11.
    219.     11.    229.     11.    220.     11.    225.     11.    221.     11.
    231.     11.    211.     10.    243.     11.    227.     11.    246.     11.
    249.     11.    262.     12.    285.     12.    314.     13.    335.     13.
    312.     13.    318.     13.    309.     13.    307.     13.    296.     12.
    268.     12.    236.     11.    240.     11.    247.     11.    226.     11.
    239.     11.    228.     11.    236.     11.    227.     11.    239.     11.
    237.     11.    266.     12.    282.     12.    298.     12.    305.     13.
    309.     13.    312.     13.    320.     13.    313.     13.    288.     12.
    262.     12.    254.     11.    230.     11.    228.     11.    234.     11.
    253.     11.    202.     10.    241.     11.    229.     11.    236.     11.
    214.     10.    217.     11.    254.     11.    258.     12.    256.     11.
    264.     12.    280.     12.    273.     12.    263.     12.    271.     12.
    271.     12.    260.     12.    261.     12.    255.     11.    236.     11.
    219.     11.    240.     11.    249.     11.    227.     11.    232.     11.
    212.     10.    231.     11.    248.     11.    226.     11.    208.     10.
    223.     11.    207.     10.    220.     10.    234.     11.    209.     10.
    221.     11.    220.     10.    228.     11.    221.     11.    236.     11.
    241.     11.    228.     11.    266.     12.    252.     11.    257.     11.
    272.     12.    293.     12.    303.     12.    295.     12.    302.     12.
    298.     12.    293.     12.    298.     12.    280.     12.    285.     12.
    248.     11.    253.     11.    240.     11.    273.     12.    234.     11.
    243.     11.    240.     11.    208.     10.    211.     10.    230.     11.
    238.     11.    216.     10.    225.     11.    216.     10.    206.     10.
    234.     11.    225.     11.    236.     11.    226.     11.    233.     11.
    214.     10.    246.     11.    218.     10.    239.     11.    260.     11.
    269.     12.    294.     12.    356.     13.    399.     14.    493.     16.
    549.     17.    586.     17.    593.     17.    598.     17.    614.     18.
    562.     17.    502.     16.    437.     15.    361.     13.    344.     13.
    325.     13.    281.     12.    277.     12.    258.     11.    228.     11.
    261.     11.    262.     11.    240.     11.    251.     11.    237.     11.
    244.     11.    242.     11.    247.     11.    239.     11.    255.     11.
    280.     12.    316.     13.    343.     13.    356.     13.    355.     13.
    359.     13.    353.     13.    345.     13.    323.     13.    308.     12.
    323.     18.    281.     12.    237.     11.    241.     11.    242.     11.
    220.     10.    231.     11.    220.     10.    220.     10.    216.     10.
    220.     10.    241.     11.    239.     11.    222.     11.    226.     11.
    214.     10.    229.     11.    220.     10.    220.     10.    223.     11.
    227.     11.    221.     10.    218.     10.    229.     11.    221.     10.
    219.     10.    220.     10.    210.     10.    228.     11.    227.     11.
    207.     10.    210.     10.    215.     10.    223.     11.    222.     11.
    228.     11.    238.     11.    234.     11.    224.     11.    213.     10.
    221.     10.    220.     10.    227.     11.    226.     11.    217.     10.
    212.     10.    218.     10.    216.     10.    233.     11.    234.     11.
    227.     11.    209.     10.    222.     11.    221.     10.    216.     10.
    209.     10.    214.     10.    221.     11.    237.     11.    239.     11.
    247.     11.    252.     11.    245.     11.    238.     11.    238.     11.
    255.     11.    240.     11.    243.     11.    258.     11.    249.     11.
    253.     11.    245.     11.    252.     11.    250.     11.    260.     11.
    260.     11.    255.     11.    263.     11.    268.     12.    282.     12.
    292.     12.    270.     12.    266.     12.    283.     12.    272.     12.
    251.     11.    250.     11.    266.     12.    252.     11.    251.     11.
    249.     11.    231.     11.    221.     10.    212.     10.    214.     10.
    218.     10.    227.     11.    225.     11.    217.     10.    221.     10.
    215.     10.    223.     10.    219.     10.    224.     10.    223.     10.
    221.     10.    223.     10.    228.     10.    224.     10.    225.     10.
    235.     10.    245.     11.    232.     10.    222.     10.    225.     10.
    226.     10.    235.     10.    250.     11.    249.     11.    264.     11.
    266.     11.    259.     11.    275.     11.    279.     11.    271.     11.
    285.     12.    278.     11.    276.     11.    306.     12.    305.     12.
    313.     12.    314.     12.    315.     12.    318.     12.    314.     12.
    310.     12.    312.     12.    293.     12.    289.     12.    285.     12.
    284.     12.    278.     11.    275.     11.    286.     12.    283.     11.
    265.     11.    269.     11.    273.     11.    263.     11.    249.     11.
    248.     11.    262.     11.    250.     11.    240.     11.    250.     11.
    271.     11.    284.     11.    297.     12.    312.     12.    309.     12.
    306.     12.    298.     12.    297.     12.    295.     12.    282.     11.
    281.     11.    269.     11.    266.     11.    275.     11.    251.     11.
    242.     11.    233.     10.    249.     11.    241.     11.    236.     10.
    228.     10.    237.     10.    234.     10.    230.     10.    225.     10.
    248.     11.    249.     11.    251.     11.    255.     11.    240.     11.
    244.     11.    247.     11.    256.     11.    252.     11.    237.     10.
    239.     11.    242.     11.    252.     11.    252.     11.    269.     11.
    270.     11.    253.     11.    285.     11.    286.     12.    271.     11.
    283.     11.    293.     12.    292.     12.    306.     12.    333.     13.
    345.     13.    345.     13.    371.     13.    362.     13.    354.     13.
    362.     13.    354.     13.    326.     13.    316.     12.    290.     12.
    258.     11.    243.     11.    232.     10.    236.     11.    247.     11.
    244.     11.    224.     10.    235.     11.    249.     11.    238.     11.
    232.     10.    229.     10.    229.     10.    236.     11.    233.     11.
    235.     11.    211.     10.    220.     10.    230.     10.    233.     10.
    225.     10.    238.     11.    230.     10.    210.     10.    219.     10.
    210.     10.    219.     10.    226.     10.    222.     10.    238.     11.
    235.     11.    221.     10.    229.     10.    227.     10.    233.     11.
    249.     11.    239.     11.    253.     11.    228.     10.    249.     11.
    256.     11.    256.     11.    261.     11.    262.     11.    268.     11.
    262.     11.    281.     12.    305.     12.    312.     12.    320.     12.
    335.     13.    357.     13.    348.     13.    351.     13.    355.     13.
    356.     13.    355.     13.    346.     13.    331.     13.    307.     12.
    289.     12.    276.     11.    275.     11.    251.     11.    258.     11.
    265.     11.    260.     11.    275.     11.    258.     11.    294.     12.
    306.     12.    301.     12.    303.     12.    337.     13.    347.     13.
    358.     13.    358.     13.    369.     13.    363.     13.    367.     13.
    361.     13.    329.     13.    335.     13.    314.     12.    315.     12.
    293.     10.    282.     12.    275.     12.    274.     12.    239.     11.
    236.     11.    236.     11.    235.     11.    234.     11.    241.     11.
    249.     11.    237.     11.    256.     11.    255.     11.    226.     11.
    224.     10.    233.     11.    239.     11.    225.     10.    242.     11.
    229.     11.    217.     10.    233.     11.    229.     11.    250.     11.
    221.     10.    224.     10.    230.     11.    216.     10.    221.     10.
    228.     11.    238.     11.    220.     10.    239.     11.    239.     11.
    251.     11.    239.     11.    250.     11.    244.     11.    245.     11.
    223.     10.    237.     11.    246.     11.    253.     11.    241.     11.
    234.     11.    240.     11.    238.     11.    233.     11.    259.     11.
    242.     11.    237.     11.    249.     11.    256.     11.    229.     11.
    234.     11.    227.     11.    217.     10.    234.     11.    239.     11.
    232.     11.    227.     11.    231.     11.    234.     11.    233.     11.
    238.     11.    241.     11.    261.     11.    262.     11.    280.     12.
    282.     12.    300.     12.    338.     13.    376.     14.    437.     15.
    482.     16.    532.     16.    589.     17.    630.     18.    646.     18.
    675.     18.    669.     18.    658.     18.    640.     18.    616.     18.
    610.     18.    547.     17.    500.     16.    452.     15.    424.     15.
    385.     14.    356.     13.    298.     12.    298.     12.    290.     12.
    278.     12.    279.     12.    263.     11.    253.     11.    248.     11.
    243.     11.    243.     11.    245.     11.    245.     11.    260.     11.
    255.     11.    240.     11.    269.     12.    282.     12.    266.     11.
    257.     11.    275.     12.    255.     11.    284.     12.    265.     11.
    278.     12.    285.     12.    297.     12.    281.     12.    276.     12.
    250.     11.    250.     11.    261.     11.    240.     11.    244.     11.
    233.     11.    240.     11.    243.     11.    246.     11.    238.     11.
    249.     11.    231.     11.    255.     11.    242.     11.    235.     11.
    263.     11.    235.     11.    259.     11.    255.     11.    249.     11.
    240.     11.    226.     11.    241.     11.    232.     11.    226.     11.
    225.     11.    235.     11.    237.     11.    260.     11.    241.     11.
    250.     11.    241.     11.    244.     11.    254.     11.    228.     11.
    266.     11.    244.     11.    235.     11.    250.     11.    270.     12.
    276.     12.    279.     12.    250.     11.    254.     11.    263.     11.
    283.     12.    281.     12.    263.     11.    285.     12.    266.     12.
    264.     11.    261.     11.    254.     11.    240.     11.    241.     11.
    246.     11.    251.     11.    252.     11.    228.     11.    245.     11.
    244.     11.    231.     11.    225.     11.    243.     11.    244.     11.
    252.     11.    242.     11.    264.     11.    263.     11.    258.     11.
    254.     11.    265.     11.    257.     11.    240.     11.    250.     11.
    249.     11.    283.     12.    268.     12.    281.     12.    261.     11.
    273.     17.    291.     12.    282.     12.    274.     12.    286.     12.
    279.     12.    281.     12.    283.     12.    270.     12.    269.     12.
    282.     12.    291.     12.    297.     12.    295.     12.    298.     12.
    312.     13.    303.     12.    316.     13.    309.     13.    286.     12.
    286.     12.    306.     13.    293.     12.    309.     13.    282.     12.
    286.     12.    276.     12.    294.     12.    286.     12.    287.     12.
    273.     12.    275.     12.    274.     12.    268.     12.    260.     12.
    241.     11.    241.     11.    255.     11.    258.     12.    247.     11.
    238.     11.    250.     11.    237.     11.    241.     11.    251.     11.
    236.     11.    238.     11.    248.     11.    247.     11.    242.     11.
    239.     11.    228.     11.    226.     11.    243.     11.    251.     11.
    234.     11.    245.     11.    253.     11.    229.     11.    238.     11.
    234.     11.    253.     11.    243.     11.    242.     11.    238.     11.
    259.     12.    263.     12.    264.     12.    262.     12.    253.     11.
    271.     12.    274.     12.    281.     12.    283.     12.    285.     12.
    291.     12.    316.     13.    330.     13.    335.     13.    362.     14.
    369.     14.    396.     14.    419.     15.    465.     15.    457.     15.
    476.     16.    499.     16.    516.     16.    522.     16.    510.     16.
    534.     17.    540.     17.    507.     16.    516.     16.    515.     16.
    502.     16.    483.     16.    434.     15.    435.     15.    385.     14.
    376.     11.    375.     14.    356.     13.    326.     13.    319.     13.
    301.     12.    302.     12.    274.     12.    283.     12.    272.     12.
    272.     12.    268.     11.    262.     11.    271.     12.    275.     12.
    263.     11.    255.     11.    250.     11.    227.     11.    246.     11.
    244.     11.    252.     11.    243.     11.    246.     11.    232.     11.
    231.     11.    257.     11.    248.     11.    229.     11.    232.     11.
    246.     11.    247.     11.    250.     11.    247.     11.    241.     11.
    232.     11.    236.     11.    239.     11.    237.     11.    244.     11.
    248.     11.    247.     11.    236.     11.    237.     11.    246.     11.
    245.     11.    239.     11.    257.     11.    253.     11.    244.     11.
    235.     11.    242.     11.    251.     11.    257.     11.    253.     11.
    259.     11.    256.     11.    255.     11.    256.     11.    254.     11.
    248.     11.    257.     11.    258.     11.    259.     11.    262.     11.
    272.     12.    275.     12.    273.     12.    284.     12.    282.     12.
    266.     11.    257.     11.    276.     12.    264.     11.    290.     12.
    303.     12.    275.     12.    287.     12.    280.     12.    273.     12.
    289.     12.    281.     12.    277.     12.    273.     12.    284.     12.
    270.     12.    274.     12.    274.     12.    258.     11.    259.     11.
    264.     11.    253.     11.    257.     11.    256.     11.    247.     11.
    250.     11.    271.     12.    254.     11.    260.     11.    255.     11.
    248.     11.    249.     11.    256.     11.    272.     11.    254.     11.
    255.     11.    267.     11.    255.     11.    253.     11.    256.     11.
    255.     11.    271.     11.    262.     11.    280.     12.    279.     12.
    255.     11.    241.     11.    245.     11.    260.     11.    243.     11.
    258.     11.    255.     11.    267.     11.    271.     11.    264.     11.
    266.     11.    271.     11.    286.     12.    254.     11.    263.     11.
    272.     11.    288.     12.    280.     12.    277.     11.    272.     11.
    277.     11.    281.     12.    306.     12.    292.     12.    285.     12.
    287.     12.    313.     12.    317.     12.    324.     12.    343.     13.
    332.     13.    322.     12.    324.     12.    334.     13.    344.     13.
    327.     12.    324.     12.    327.     12.    321.     12.    323.     12.
    325.     12.    315.     12.    319.     12.    308.     12.    317.     12.
    318.     12.    315.     12.    307.     12.    301.     12.    306.     12.
    286.     12.    296.     12.    320.     12.    304.     12.    303.     12.
    301.     12.    300.     12.    293.     12.    303.     12.    300.     12.
    292.     12.    303.     12.    314.     12.    310.     12.    309.     12.
    310.     12.    319.     12.    332.     13.    340.     13.    335.     13.
    329.     13.    323.     12.    323.     12.    333.     13.    331.     13.
    319.     12.    333.     13.    331.     13.    330.     13.    314.     12.
    307.     12.    317.     12.    321.     12.    303.     12.    304.     12.
    321.     12.    315.     12.    299.     12.    290.     11.    279.     11.
    294.     12.    296.     12.    298.     12.    298.     12.    293.     11.
    281.     11.    291.     11.    312.     12.    305.     12.    303.     12.
    318.     12.    331.     12.    322.     12.    325.     12.    325.     12.
    339.     12.    325.     12.    318.     12.    317.     12.    326.     12.
    340.     12.    340.     12.    354.     13.    370.     13.    339.     12.
    337.     12.    343.     12.    324.     12.    331.     12.    325.     12.
    328.     12.    341.     12.    320.     12.    324.     12.    314.     12.
    305.     12.    302.     12.    300.     12.    305.     12.    322.     12.
    303.     12.    294.     12.    292.     11.    298.     12.    293.     12.
    291.     11.    288.     11.    287.     11.    298.     12.    294.     12.
    278.     11.    276.     11.    292.     11.    302.     12.    285.     11.
    292.     11.    294.     12.    300.     12.    299.     12.    281.     11.
    291.     11.    295.     12.    285.     11.    284.     11.    288.     11.
    281.     11.    287.     11.    288.     11.    290.     11.    286.     11.
    277.     11.    290.     11.    297.     12.    296.     12.    305.     12.
    311.     12.    307.     12.    302.     12.    303.     12.    302.     12.
    299.     12.    307.     12.    322.     12.    331.     12.    328.     12.
    313.     12.    323.     12.    332.     12.    331.     12.    322.     12.
    320.     12.    324.     12.    327.     12.    325.     12.    327.     12.
    320.     10.    332.     12.    324.     12.    331.     12.    340.     12.
    318.     12.    314.     12.    326.     12.    332.     12.    332.     12.
    324.     12.    311.     12.    311.     12.    305.     12.    302.     12.
    313.     12.    313.     12.    295.     12.    301.     12.    314.     12.
    303.     12.    288.     11.    306.     12.    319.     12.    299.     12.
    294.     12.    311.     12.    327.     12.    314.     12.    310.     12.
    297.     12.    294.     12.    326.     12.    320.     12.    306.     12.
    309.     12.    314.     12.    299.     12.    302.     12.    309.     12.
    310.     12.    307.     12.    306.     12.    303.     12.    321.     12.
    326.     12.    311.     12.    320.     12.    314.     12.    326.     12.
    336.     12.    318.     12.    318.     12.    314.     12.    303.     12.
    321.     12.    340.     12.    328.     12.    320.     12.    307.     12.
    306.     12.    314.     12.    317.     12.    323.     12.    322.     12.
    324.     12.    325.     12.    329.     12.    318.     12.    310.     12.
    327.     12.    343.     12.    336.     12.    321.     12.    320.     12.
    334.     12.    336.     12.    344.     12.    336.     12.    336.     12.
    337.     12.    331.     12.    335.     12.    333.     12.    338.     12.
    350.     13.    336.     12.    332.     12.    349.     13.    345.     12.
    340.     12.    341.     12.    340.     12.    340.     12.    349.     13.
    352.     13.    351.     13.    349.     13.    342.     12.    337.     12.
    342.     13.    353.     13.    351.     13.    336.     13.    343.     13.
    360.     13.    350.     13.    353.     13.    360.     13.    355.     13.
    351.     13.    370.     13.    366.     13.    361.     13.    373.     13.
    368.     13.    365.     13.    351.     13.    349.     13.    367.     13.
    379.     13.    355.     13.    363.     13.    364.     13.    377.     13.
    381.     13.    401.     14.    382.     13.    387.     13.    399.     14.
    387.     13.    389.     14.    387.     13.    417.     14.    409.     14.
    401.     14.    411.     14.    422.     14.    432.     14.    420.     14.
    412.     14.    419.     14.    428.     14.    424.     14.    436.     14.
    426.     14.    442.     14.    444.     14.    449.     14.    449.     14.
    464.     15.    442.     14.    424.     14.    455.     15.    450.     14.
    437.     14.    460.     15.    471.     15.    490.     15.    476.     15.
    467.     15.    469.     15.    462.     15.    473.     15.    497.     15.
    489.     15.    474.     15.    475.     15.    465.     15.    491.     15.
    491.     15.    475.     15.    496.     15.    494.     15.    480.     15.
    493.     15.    483.     15.    466.     15.    468.     15.    475.     15.
    481.     15.    460.     15.    489.     15.    490.     15.    478.     15.
    487.     15.    490.     15.    489.     15.    482.     15.    482.     15.
    474.     15.    493.     15.    491.     15.    480.     15.    473.     15.
    502.     15.    481.     15.    468.     15.    475.     15.    469.     15.
    478.     21.    453.     21.    458.     21.    459.     21.    453.     21.
    471.     21.    465.     21.    471.     21.    464.     21.    487.     21.
    475.     21.    479.     21.    488.     21.    466.     21.    506.     22.
    491.     21.    470.     21.    466.     21.    483.     21.    493.     21.
    527.     22.    526.     22.    503.     22.    494.     21.    510.     22.
    529.     22.    521.     22.    519.     22.    535.     22.    552.     23.
    495.     21.    495.     21.    518.     22.    554.     23.    538.     22.
    565.     23.    541.     22.    527.     22.    549.     22.    527.     22.
    528.     22.    559.     23.    531.     22.    544.     22.    548.     22.
    544.     22.    590.     23.    549.     22.    580.     23.    586.     23.
    529.     22.    571.     23.    637.     24.    613.     24.    568.     23.
    590.     23.    616.     24.    597.     23.    575.     23.    588.     23.
    616.     24.    617.     24.    652.     24.    663.     24.    622.     24.
    621.     24.    652.     24.    637.     24.    647.     24.    653.     24.
    668.     25.    688.     25.    680.     25.    716.     25.    734.     26.
    725.     25.    718.     25.    708.     25.    706.     25.    693.     25.
    715.     25.    710.     25.    740.     26.    729.     26.    717.     25.
    793.     27.    750.     26.    736.     26.    759.     26.    770.     26.
    781.     26.    809.     27.    817.     27.    777.     26.    821.     27.
    849.     27.    812.     27.    783.     26.    808.     27.    822.     27.
